tau,intH,DintH,normax,epsilon,fidelity
0.01,0.2431113450972755,1.0895659633856566e-09,33.94112549695428,0.5555437029248265,0.01562656505702225
0.010115794542598982,0.2459264417978917,1.1021825437463988e-09,33.94112549695428,0.5555434259788199,0.015626602247837008
0.010232929922807542,0.24877413578199012,1.1149451806138737e-09,33.94112549695428,0.5555431425824047,0.015626640317747742
0.010351421666793436,0.2516548045083234,1.1278556373344947e-09,33.94112549695428,0.5555428525739938,0.015626679284870642
0.010471285480508996,0.25456882980641127,1.1409155900848206e-09,33.94112549695428,0.55554255579484,0.015626719182378845
0.010592537251772886,0.2575165979271504,1.15412676995625e-09,33.94112549695428,0.5555422520864086,0.015626760021900034
0.010715193052376065,0.2604984995940126,1.1674909280979216e-09,33.94112549695428,0.5555419413005588,0.015626801824605272
0.010839269140212033,0.2635149300548336,1.1810098383730101e-09,33.94112549695428,0.5555416232606707,0.01562684462391258
0.01096478196143185,0.266566289134204,1.1946852852698711e-09,33.94112549695428,0.555541297794681,0.015626888435069607
0.01109174815262401,0.26965298128646437,1.2085190888929016e-09,33.94112549695428,0.5555409647442509,0.01562693327936081
0.011220184543019636,0.2727754156493163,1.2225130817064035e-09,33.94112549695428,0.5555406239218998,0.015626979190505215
0.01135010815672315,0.2759340060980523,1.2366691147145357e-09,33.94112549695428,0.5555402751494903,0.015627026190042487
0.01148153621496883,0.27912917130041537,1.250989106684093e-09,33.94112549695428,0.555539918232708,0.015627074295972168
0.011614486138403426,0.2823613347720918,1.2654748388508247e-09,33.94112549695428,0.5555395529975464,0.01562712354414172
0.011748975549395297,0.28563092493284914,1.2801283863234786e-09,33.94112549695428,0.555539179241919,0.01562717396275172
0.011885022274370183,0.28893837516332155,1.2949515345119823e-09,33.94112549695428,0.555538796769368,0.01562722556874382
0.012022644346174132,0.2922841238624547,1.309946406934711e-09,33.94112549695428,0.5555384053643925,0.015627278394815484
0.012161860006463679,0.29566861450561444,1.3251148714551672e-09,33.94112549695428,0.5555380048376158,0.015627332480828378
0.012302687708123818,0.29909229570336987,1.3404589784622896e-09,33.94112549695428,0.5555375949686286,0.015627387840835893
0.01244514611771385,0.30255562126095503,1.35598072012336e-09,33.94112549695428,0.5555371755432295,0.01562744450458932
0.012589254117941675,0.30605905023842145,1.3716822819731175e-09,33.94112549695428,0.5555367463191476,0.015627502523754513
0.012735030810166616,0.3096030470114852,1.3875655685753087e-09,33.94112549695428,0.5555363070945867,0.015627561910104115
0.012882495516931342,0.31318808133308,1.4036328205963532e-09,33.94112549695428,0.555535857627823,0.01562762269474388
0.013031667784522994,0.31681462839562174,1.419886122631768e-09,33.94112549695428,0.5555353976671367,0.015627684927581643
0.013182567385564075,0.32048316889399564,1.4363276733351388e-09,33.94112549695428,0.555534926986535,0.01562774863269355
0.01333521432163324,0.32419418908927095,1.452959519138066e-09,33.94112549695428,0.5555344453296911,0.01562781383780744
0.013489628825916533,0.3279481808731549,1.4697840427374542e-09,33.94112549695428,0.5555339524435347,0.01562788058959255
0.013645831365889245,0.33174564183319255,1.4868033429318687e-09,33.94112549695428,0.5555334480445492,0.01562794892655879
0.013803842646028852,0.33558707531872084,1.504019711074181e-09,33.94112549695428,0.555532931893981,0.015628018873289278
0.013963683610559377,0.33947299050758706,1.5214354385172622e-09,33.94112549695428,0.5555324037131607,0.015628090470792447
0.01412537544622754,0.3434039024736405,1.5390528306001919e-09,33.94112549695428,0.5555318631966865,0.01562816377635106
0.01428893958511103,0.34738033225500475,1.556874222477609e-09,33.94112549695428,0.5555313100855268,0.015628238808982346
0.014454397707459272,0.3514028069231399,1.5749019277827396e-09,33.94112549695428,0.5555307440835501,0.01562831560705486
0.014621771744567183,0.35547185965270633,1.5931384850123402e-09,33.94112549695428,0.5555301648754265,0.015628394239421205
0.014791083881682071,0.3595880297922359,1.6115861558663527e-09,33.94112549695428,0.5555295721490543,0.015628474726357172
0.014962356560944336,0.3637518629356222,1.6302473938400834e-09,33.94112549695428,0.5555289656173423,0.01562855710838068
0.01513561248436208,0.3679639109944381,1.649124768980572e-09,33.94112549695428,0.555528344940918,0.015628641446811975
0.015310874616820304,0.37222473227109165,1.6682207851985258e-09,33.94112549695428,0.5555277097758499,0.01562872778549051
0.01548816618912481,0.3765348915328276,1.6875378714862818e-09,33.94112549695428,0.5555270598146674,0.015628816157215546
0.015667510701081494,0.38089496008658796,1.707078586452547e-09,33.94112549695428,0.5555263947029119,0.015628906615417357
0.015848931924611134,0.38530551585473644,1.726845624881821e-09,33.94112549695428,0.5555257140737306,0.015628999232243035
0.016032453906900418,0.389767143451663,1.7468416086460076e-09,33.94112549695428,0.5555250175650484,0.015629094027876923
0.0162181009735893,0.39428043426127274,1.7670690811207729e-09,33.94112549695428,0.5555243048375867,0.015629191054523078
0.016405897731995397,0.39884598651537423,1.787530776718206e-09,33.94112549695428,0.5555235754819143,0.015629290400016257
0.016595869074375606,0.403464405372973,1.8082293518962601e-09,33.94112549695428,0.5555228291070522,0.015629392087942163
0.016788040181225608,0.40813630300048664,1.8291676609797844e-09,33.94112549695428,0.5555220653549182,0.015629496168248876
0.016982436524617443,0.4128622986528847,1.8503484241778195e-09,33.94112549695428,0.5555212837893094,0.015629602723449612
0.017179083871575886,0.4176430187557725,1.871774506874077e-09,33.94112549695428,0.5555204839841371,0.015629711804221617
0.017378008287493755,0.42247909698842073,1.8934486341022974e-09,33.94112549695428,0.5555196655539925,0.01562982345176949
0.01757923613958693,0.4273711743677615,1.915373736027272e-09,33.94112549695428,0.5555188280304079,0.015629937740560602
0.01778279410038923,0.4323198993333521,1.9375526588965436e-09,33.94112549695428,0.5555179709865133,0.01563005475261042
0.017988709151287873,0.43732592783332636,1.9599885257544705e-09,33.94112549695428,0.5555170939642972,0.015630174518462506
0.018197008586099836,0.4423899234113402,1.9826840579485056e-09,33.94112549695428,0.5555161964952888,0.01563029710491621
0.018407720014689564,0.447512557294522,2.0056424573445045e-09,33.94112549695428,0.5555152781042303,0.015630422624698145
0.018620871366628676,0.45269450848244397,2.0288667024626755e-09,33.94112549695428,0.5555143383037562,0.015630551098805304
0.018836490894898,0.4579364638371235,2.0523599348872337e-09,33.94112549695428,0.5555133765961469,0.0156306825934423
0.019054607179632473,0.46323911817406527,2.0761251471245953e-09,33.94112549695428,0.5555123924702985,0.0156308172368428
0.019275249131909367,0.4686031743543578,2.100165538980632e-09,33.94112549695428,0.5555113853912733,0.015630955052130645
0.019498445997580455,0.4740293433778372,2.1244843097191143e-09,33.94112549695428,0.5555103548562815,0.015631096110650094
0.019724227361148535,0.47951834447733044,2.149084683106782e-09,33.94112549695428,0.5555093002853897,0.01563124053931296
0.0199526231496888,0.4850709052139881,2.1739699064375617e-09,33.94112549695428,0.5555082211419037,0.01563138837798484
0.020183663636815608,0.490687761573721,2.199143223752774e-09,33.94112549695428,0.555507116833625,0.01563153969508594
0.020417379446695295,0.49636965806475597,2.224608170635703e-09,33.94112549695428,0.5555059868012805,0.015631694630012596
0.02065380155810529,0.5021173478163182,2.250367849856126e-09,33.94112549695428,0.555504830413738,0.015631853221327714
0.020892961308540396,0.5079315926784588,2.276425956375047e-09,33.94112549695428,0.5555036470734457,0.015632015545309064
0.021134890398366465,0.5138131633230364,2.3027857217654615e-09,33.94112549695428,0.5555024361620645,0.015632181760993208
0.021379620895022326,0.5197628393458694,2.329450723677698e-09,33.94112549695428,0.5555011970224834,0.015632351889733394
0.0216271852372702,0.5257814093700698,2.356424491840349e-09,33.94112549695428,0.5554999289980829,0.015632526039662416
0.02187761623949553,0.5318696711505756,2.3837106014100787e-09,33.94112549695428,0.5554986314157474,0.015632704353096667
0.022130947096056376,0.5380284316798909,2.4113126692853343e-09,33.94112549695428,0.5554973036035402,0.015632886862473123
0.0223872113856834,0.5442585072950532,2.439234278862716e-09,33.94112549695428,0.555495944827557,0.015633073717945152
0.022646443075930594,0.5505607237858368,2.4674792806862397e-09,33.94112549695428,0.5554945543903822,0.015633265011615653
0.022908676527677724,0.5569359165042114,2.4960514209996718e-09,33.94112549695428,0.5554931315534493,0.01563346081230677
0.023173946499684784,0.5633849304750667,2.5249543342655348e-09,33.94112549695428,0.5554916755390368,0.015633661313019014
0.023442288153199226,0.5699086205082189,2.5541919275147776e-09,33.94112549695428,0.5554901855883888,0.015633866534617603
0.023713737056616554,0.5765078513117156,2.5837680815406563e-09,33.94112549695428,0.5554886609498693,0.015634076663220968
0.023988329190194897,0.5831834976064518,2.6136867003383538e-09,33.94112549695428,0.5554871007773561,0.01563429176944487
0.024266100950824154,0.5899364442421137,2.6439516845420258e-09,33.94112549695428,0.5554855042388289,0.015634512002201343
0.02454708915685031,0.5967675863144625,2.674567284549449e-09,33.94112549695428,0.5554838705047167,0.015634737472506738
0.024831331052955704,0.6036778292839807,2.7055373140417657e-09,33.94112549695428,0.5554821986960842,0.015634968314727514
0.025118864315095794,0.6106680890958891,2.7368659653035157e-09,33.94112549695428,0.5554804879210948,0.01563520465633676
0.02540972705549305,0.6177392923015549,2.7685572884803347e-09,33.94112549695428,0.5554787372860202,0.015635446646010066
0.025703957827688646,0.624892376181303,2.800615757315647e-09,33.94112549695428,0.5554769458605636,0.015635694385935865
0.026001595631652722,0.6321282888686536,2.833045359396623e-09,33.94112549695428,0.555475112679269,0.015635948091128383
0.026302679918953815,0.6394479894759959,2.8658504784779062e-09,33.94112549695428,0.5554732367823414,0.015636207838665678
0.0266072505979881,0.6468524482217174,2.8990354630775705e-09,33.94112549695428,0.55547131717936,0.015636473806460653
0.026915348039269153,0.654342646558804,2.932604711586989e-09,33.94112549695428,0.5554693528362317,0.01563674618939923
0.027227013080779128,0.6619195773049329,2.966562673680298e-09,33.94112549695428,0.5554673427185514,0.015637025113260622
0.02754228703338166,0.6695842447740665,3.0009137580487913e-09,33.94112549695428,0.5554652857702678,0.015637310758589453
0.027861211686297706,0.6773376649095767,3.0356627016801807e-09,33.94112549695428,0.5554631808788061,0.015637603317047367
0.028183829312644536,0.6851808654189033,3.0708141200231145e-09,33.94112549695428,0.5554610269420933,0.015637902980015907
0.028510182675039096,0.6931148859097794,3.106372465245394e-09,33.94112549695428,0.5554588228153992,0.01563820994784147
0.028840315031266057,0.7011407780280264,3.1423424663116345e-09,33.94112549695428,0.5554565673134939,0.015638524502931177
0.029174270140011675,0.7092596055969518,3.178729077158403e-09,33.94112549695428,0.5554542592543621,0.01563884687757581
0.029512092266663854,0.7174724447583551,3.2155370251240115e-09,33.94112549695428,0.5554518973992186,0.01563917775812173
0.029853826189179603,0.7257803841151724,3.2527711890098163e-09,33.94112549695428,0.5554494804454654,0.015639521605406465
0.03019951720402016,0.7341845248757655,3.2904365042125266e-09,33.94112549695428,0.5554470071694069,0.015639876395570195
0.030549211132155123,0.7426859809998894,3.3285380657234118e-09,33.94112549695428,0.5554444762767243,0.01564023967318975
0.030902954325135904,0.7512858793463457,3.367080616276455e-09,33.94112549695428,0.5554418864411005,0.015640611635851957
0.03126079367123956,0.7599853598223447,3.4060695723288695e-09,33.94112549695428,0.5554392362965679,0.015640992488019825
0.03162277660168379,0.7687855755345996,3.4455101051997575e-09,33.94112549695428,0.5554365244199162,0.015641382442105934
0.03198895109691397,0.7776876929421721,3.485407231926252e-09,33.94112549695428,0.5554337494047874,0.01564178170807374
0.03235936569296283,0.7866928920110823,3.525766345546799e-09,33.94112549695428,0.5554309097586656,0.015642190509015528
0.03273406948788383,0.7958023663707121,3.5665926857936583e-09,33.94112549695428,0.5554280039882024,0.01564260906782975
0.03311311214825911,0.8050173234720206,3.6078918826034506e-09,33.94112549695428,0.5554250305576395,0.015643037614242898
0.03349654391578276,0.8143389847475906,3.649669414124493e-09,33.94112549695428,0.5554219878825859,0.015643476384729724
0.033884415613920256,0.8237685857735277,3.691930480515665e-09,33.94112549695428,0.5554188743725544,0.01564392561697079
0.03427677865464505,0.8333073764332338,3.734681135528217e-09,33.94112549695428,0.5554156883570911,0.015644385560383202
0.034673685045253165,0.8429566210830783,3.777926588536748e-09,33.94112549695428,0.5554124281767119,0.015644856463093142
0.03507518739525679,0.8527175987199882,3.8216729167112745e-09,33.94112549695428,0.555409092081959,0.015645338586219366
0.03548133892335755,0.8625916031509769,3.865925811462681e-09,33.94112549695428,0.5554056783309181,0.015645832190230774
0.03589219346450054,0.8725799431646366,3.910691114472273e-09,33.94112549695428,0.55540218509604,0.01564633754796007
0.03630780547701014,0.8826839427046161,3.955974783430988e-09,33.94112549695428,0.5553986105501993,0.015646854932345817
0.036728230049808464,0.892904941045111,4.001782812458957e-09,33.94112549695428,0.5553949527902806,0.015647384627542813
0.03715352290971726,0.9032442929683804,4.048121398205276e-09,33.94112549695428,0.5553912098872619,0.015647926921601506
0.03758374042884443,0.9137033689443224,4.094996308625504e-09,33.94112549695428,0.555387379866255,0.015648482109346745
0.038018939632056124,0.924283555312128,4.142414131115199e-09,33.94112549695428,0.5553834606922264,0.015649050494622983
0.03845917820453535,0.9349862544640409,4.190381155131165e-09,33.94112549695428,0.5553794503069577,0.015649632384394062
0.03890451449942805,0.9458128850312408,4.238903360265223e-09,33.94112549695428,0.5553753465853439,0.01565022809580147
0.03935500754557775,0.9567648820718833,4.287987538827143e-09,33.94112549695428,0.5553711473554714,0.01565083795271681
0.039810717055349734,0.967843697261312,4.337640228122344e-09,33.94112549695428,0.5553668504011215,0.01565146228540866
0.04027170343254591,0.9790507990844802,4.387867599429593e-09,33.94112549695428,0.5553624534587525,0.01565210143113113
0.04073802778041126,0.9903876730305957,4.438676848381867e-09,33.94112549695428,0.5553579542003598,0.0156527557364924
0.04120975190973302,1.001855821790021,4.490074303900929e-09,33.94112549695428,0.5553533502493448,0.015653425555062245
0.04168693834703355,1.013456765453452,4.5420667741259e-09,33.94112549695428,0.5553486391742903,0.015654111248267565
0.042169650342858224,1.0251920417134048,4.594661428452065e-09,33.94112549695428,0.5553438184879707,0.015654813185360883
0.04265795188015926,1.037063206068037,4.6478652435035656e-09,33.94112549695428,0.5553388856446182,0.01565553174369632
0.043151907682776526,1.0490718320273258,4.70168484180411e-09,33.94112549695428,0.5553338380396412,0.01565626730865495
0.04365158322401661,1.0612195113216345,4.756127786314374e-09,33.94112549695428,0.5553286730075687,0.015657020273503342
0.044157044735331254,1.0735078541126948,4.811201298688186e-09,33.94112549695428,0.5553233878237678,0.01565779103866819
0.0446683592150963,1.0859384892070343,4.866912234119045e-09,33.94112549695428,0.5553179796954947,0.01565858001179451
0.04518559443749224,1.0985130642718708,4.923268421630836e-09,33.94112549695428,0.5553124457655587,0.015659387603656778
0.04570881896148752,1.1112332460535082,4.980277183274512e-09,33.94112549695428,0.55530678311455,0.015660214184361438
0.04623810213992603,1.124100720598263,5.037946075071853e-09,33.94112549695428,0.5553009887537235,0.015661060113540556
0.046773514128719815,1.1371171934759494,5.096282741081856e-09,33.94112549695428,0.5552950596189702,0.01566192584039585
0.04731512589614805,1.1502843900059485,5.155294919472267e-09,33.94112549695428,0.5552889925828209,0.01566281182558457
0.04786300923226385,1.1636040554858977,5.2149905873689895e-09,33.94112549695428,0.5552827844377579,0.01566371854159194
0.04841723675840994,1.177077955423029,5.27537715876332e-09,33.94112549695428,0.5552764319059673,0.01566464647132797
0.04897788193684462,1.1907078757681848,5.336463311609446e-09,33.94112549695428,0.5552699316348656,0.015665596108773133
0.04954501908047903,1.2044956231525434,5.398256644429875e-09,33.94112549695428,0.5552632801904874,0.01566656795991834
0.05011872336272725,1.2184430251270868,5.460765510351823e-09,33.94112549695428,0.5552564740627315,0.01566756254203981
0.050699070827470445,1.232551930404838,5.523998024628551e-09,33.94112549695428,0.5552495096610669,0.015668580384333674
0.05128613839913648,1.2468242091059103,5.587962907064453e-09,33.94112549695428,0.5552423833095441,0.015669622028649702
0.0518800038928961,1.261261753005386,5.65266846806918e-09,33.94112549695428,0.5552350912491925,0.015670688029116368
0.05248074602497726,1.2758664757840716,5.718123283898757e-09,33.94112549695428,0.555227629633795,0.01567177895278857
0.053088444423098846,1.2906403132821516,5.78433603098949e-09,33.94112549695428,0.5552199945289434,0.015672895379802383
0.05370317963702527,1.3055852237557828,5.851315485524283e-09,33.94112549695428,0.5552121819093953,0.01567403790376641
0.05432503314924331,1.320703188136662,5.919070707747012e-09,33.94112549695428,0.5552041876569483,0.015675207132056078
0.054954087385762455,1.335996210294593,5.987610131883217e-09,33.94112549695428,0.5551960075584251,0.015676403686122633
0.05559042572704037,1.3514663173030974,6.056943389551317e-09,33.94112549695428,0.5551876373035307,0.015677628201835266
0.05623413251903491,1.3671155597081017,6.1270794885198016e-09,33.94112549695428,0.5551790724826102,0.015678881329813335
0.05688529308438413,1.3829460117997368,6.198027916208201e-09,33.94112549695428,0.5551703085845192,0.015680163735616644
0.057543993733715694,1.3989597718872815,6.269797503660052e-09,33.94112549695428,0.5551613409944521,0.015681476100121505
0.05821032177708716,1.4151589625772887,6.342398532581395e-09,33.94112549695428,0.5551521649905694,0.015682819120171217
0.0588843655355589,1.4315457310549373,6.415839848544075e-09,33.94112549695428,0.5551427757422965,0.015684193508783254
0.059566214352901034,1.4481222493686405,6.4901317861632e-09,33.94112549695428,0.5551331683080892,0.015685599995470714
0.06025595860743578,1.4648907147179466,6.565284158986315e-09,33.94112549695428,0.5551233376325189,0.015687039326646134
0.060953689724016935,1.4818533497447737,6.641306566539454e-09,33.94112549695428,0.5551132785430305,0.01568851226615649
0.06165950018614822,1.4990124028280203,6.7182092720972225e-09,33.94112549695428,0.5551029857488118,0.01569001959543917
0.06237348354824192,1.5163701483815875,6.796002469111606e-09,33.94112549695428,0.5550924538367478,0.015691562114133518
0.06309573444801933,1.5339288871558479,6.874696264298416e-09,33.94112549695428,0.5550816772691042,0.015693140640380958
0.0638263486190549,1.5516909465426068,6.954301487969994e-09,33.94112549695428,0.5550706503808319,0.015694756011300576
0.06456542290346556,1.5696586808835953,7.0348287206385e-09,33.94112549695428,0.5550593673765096,0.01569640908342174
0.06531305526474723,1.5878344717825392,7.116287978814126e-09,33.94112549695428,0.5550478223275063,0.01569810073312732
0.06606934480075961,1.6062207284208356,7.198690709937089e-09,33.94112549695428,0.5550360091686383,0.01569983185710119
