tau,intH,DintH,normax,epsilon,fidelity
0.01,0.2431113450972755,1.0895659633856566e-09,33.94112549695428,0.5454448478443651,0.015626614827416608
0.010115794542598982,0.2459264417978917,1.1021825437463988e-09,33.94112549695428,0.5454446212514471,0.015626653535036887
0.010232929922807542,0.24877413578199012,1.1149451806138737e-09,33.94112549695428,0.5454443893815294,0.015626693161871347
0.010351421666793436,0.2516548045083234,1.1278556373344947e-09,33.94112549695428,0.5454441521017954,0.015626733727267694
0.010471285480508996,0.25456882980641127,1.140915591277443e-09,33.94112549695428,0.5454439092742719,0.015626775273399604
0.010592537251772886,0.2575165979271504,1.15412676995625e-09,33.94112549695428,0.5454436607927157,0.015626817805536448
0.010715193052376065,0.2604984995940126,1.1674909305373765e-09,33.94112549695428,0.5454434065132168,0.015626861345374984
0.010839269140212033,0.2635149300548336,1.1810098383730101e-09,33.94112549695428,0.5454431462976752,0.015626905937535036
0.01096478196143185,0.266566289134204,1.1946852852698711e-09,33.94112549695428,0.5454428800071066,0.01562695158672654
0.01109174815262401,0.26965298128646437,1.2085190888929016e-09,33.94112549695428,0.54544260751108,0.015626998318639396
0.011220184543019636,0.2727754156493163,1.2225130817064035e-09,33.94112549695428,0.5454423286551052,0.0156270461772662
0.01135010815672315,0.2759340060980523,1.2366691147145357e-09,33.94112549695428,0.5454420432955829,0.015627095174818792
0.01148153621496883,0.27912917130041537,1.250989106684093e-09,33.94112549695428,0.5454417512724773,0.015627145330409844
0.011614486138403426,0.2823613347720918,1.2654748388508247e-09,33.94112549695428,0.5454414524420964,0.015627196693323128
0.011748975549395297,0.28563092493284914,1.2801283863234786e-09,33.94112549695428,0.5454411466416812,0.01562724928220953
0.011885022274370183,0.28893837516332155,1.2949515345119823e-09,33.94112549695428,0.5454408337010123,0.01562730311393438
0.012022644346174132,0.2922841238624547,1.309946406934711e-09,33.94112549695428,0.5454405134668332,0.01562735823626135
0.012161860006463679,0.29566861450561444,1.3251148714551672e-09,33.94112549695428,0.5454401857626539,0.015627414679180173
0.012302687708123818,0.29909229570336987,1.3404589784622896e-09,33.94112549695428,0.5454398504148323,0.015627472457993466
0.01244514611771385,0.30255562126095503,1.35598072012336e-09,33.94112549695428,0.5454395072376298,0.015627531611452687
0.012589254117941675,0.30605905023842145,1.3716822805636547e-09,33.94112549695428,0.5454391560623022,0.01562759219032855
0.012735030810166616,0.3096030470114852,1.3875655685753087e-09,33.94112549695428,0.5454387966961591,0.015627654202875103
0.012882495516931342,0.31318808133308,1.4036328205963532e-09,33.94112549695428,0.5454384289406832,0.01562771768371698
0.013031667784522994,0.31681462839562174,1.419886122631768e-09,33.94112549695428,0.5454380526155421,0.01562778270059092
0.013182567385564075,0.32048316889399564,1.4363276733351388e-09,33.94112549695428,0.5454376675124858,0.01562784925657557
0.01333521432163324,0.32419418908927095,1.452959519138066e-09,33.94112549695428,0.5454372734288441,0.01562791738704807
0.013489628825916533,0.3279481808731549,1.4697840427374542e-09,33.94112549695428,0.5454368701455731,0.01562798715960772
0.013645831365889245,0.33174564183319255,1.4868033413597756e-09,33.94112549695428,0.5454364574636983,0.015628058591496654
0.013803842646028852,0.33558707531872084,1.504019711074181e-09,33.94112549695428,0.5454360351577227,0.015628131713228653
0.013963683610559377,0.33947299050758695,1.5214354417156586e-09,33.94112549695428,0.5454356029960649,0.01562820658743105
0.01412537544622754,0.3434039024736405,1.5390528306001919e-09,33.94112549695428,0.5454351607634513,0.01562828325137778
0.01428893958511103,0.34738033225500475,1.556874222477609e-09,33.94112549695428,0.5454347082167526,0.01562836172948657
0.014454397707459272,0.3514028069231399,1.5749019277827396e-09,33.94112549695428,0.5454342451200617,0.01562844207866421
0.014621771744567183,0.3554718596527064,1.593138435952192e-09,33.94112549695428,0.5454337712102046,0.01562852435734634
0.014791083881682071,0.3595880297922359,1.6115861558663527e-09,33.94112549695428,0.5454332862604512,0.01562860858322874
0.014962356560944336,0.3637518629356222,1.6302473938400834e-09,33.94112549695428,0.5454327900048725,0.015628694805568347
0.01513561248436208,0.3679639109944381,1.649124768980572e-09,33.94112549695428,0.5454322821629917,0.01562878311106494
0.015310874616820304,0.3722247322710916,1.6682207886679727e-09,33.94112549695428,0.5454317624904701,0.01562887350625346
0.01548816618912481,0.3765348915328276,1.6875378714862818e-09,33.94112549695428,0.545431230702141,0.015628966039307454
0.015667510701081494,0.38089496008658796,1.707078586452547e-09,33.94112549695428,0.5454306865017325,0.015629060805025914
0.015848931924611134,0.38530551585473644,1.726845624881821e-09,33.94112549695428,0.5454301296208047,0.01562915782209476
0.016032453906900418,0.389767143451663,1.7468416086460076e-09,33.94112549695428,0.5454295597579276,0.015629257132465827
0.0162181009735893,0.39428043426127274,1.7670690811207729e-09,33.94112549695428,0.5454289765985613,0.01562935882676304
0.016405897731995397,0.39884598651537423,1.787530776718206e-09,33.94112549695428,0.5454283798488532,0.015629462950182724
0.016595869074375606,0.403464405372973,1.8082293518962601e-09,33.94112549695428,0.5454277691859762,0.01562956953578425
0.016788040181225608,0.40813630300048664,1.8291676609797844e-09,33.94112549695428,0.545427144280108,0.01562967866697005
0.016982436524617443,0.4128622986528847,1.8503484241778195e-09,33.94112549695428,0.5454265048095126,0.01562979041774995
0.017179083871575886,0.4176430187557725,1.871774506874077e-09,33.94112549695428,0.5454258504202969,0.015629904809319226
0.017378008287493755,0.42247909698842073,1.8934486341022974e-09,33.94112549695428,0.5454251807884991,0.01563002192761047
0.01757923613958693,0.4273711743677615,1.9153736769382534e-09,33.94112549695428,0.5454244955410048,0.015630141865316135
0.01778279410038923,0.4323198993333521,1.9375526588965436e-09,33.94112549695428,0.5454237943087651,0.015630264637346448
0.017988709151287873,0.43732592783332636,1.9599885236944864e-09,33.94112549695428,0.5454230767379428,0.015630390331547214
0.018197008586099836,0.4423899234113402,1.9826840579485056e-09,33.94112549695428,0.5454223424306639,0.015630519054691344
0.018407720014689564,0.447512557294522,2.0056424573445045e-09,33.94112549695428,0.5454215910143531,0.015630650824323213
0.018620871366628676,0.45269450848244397,2.0288667024626755e-09,33.94112549695428,0.5454208220686122,0.015630785726943288
0.018836490894898,0.45793646383712355,2.052359871569827e-09,33.94112549695428,0.5454200352098769,0.015630923885721546
0.019054607179632473,0.46323911817406527,2.0761251471245953e-09,33.94112549695428,0.5454192299990088,0.01563106531068282
0.019275249131909367,0.4686031743543578,2.100165538980632e-09,33.94112549695428,0.5454184060252182,0.015631210109867347
0.019498445997580455,0.4740293433778372,2.1244843097191143e-09,33.94112549695428,0.5454175628314135,0.015631358396146367
0.019724227361148535,0.47951834447733044,2.149084683106782e-09,33.94112549695428,0.5454166999921763,0.015631510187449286
0.0199526231496888,0.4850709052139881,2.1739699064375617e-09,33.94112549695428,0.5454158170421685,0.015631665620924853
0.020183663636815608,0.490687761573721,2.199143223752774e-09,33.94112549695428,0.5454149134970661,0.015631824781227373
0.020417379446695295,0.49636965806475597,2.224608170635703e-09,33.94112549695428,0.5454139889054146,0.01563198770316763
0.02065380155810529,0.5021173478163182,2.250367849856126e-09,33.94112549695428,0.5454130427516782,0.015632154567979055
0.020892961308540396,0.5079315926784588,2.2764259539898024e-09,33.94112549695428,0.5454120745421966,0.015632325403413687
0.021134890398366465,0.5138131633230363,2.302785726535951e-09,33.94112549695428,0.5454110837678111,0.015632500303878884
0.021379620895022326,0.5197628393458694,2.329450723677698e-09,33.94112549695428,0.5454100699035531,0.015632679436502192
0.0216271852372702,0.5257814093700698,2.356424491840349e-09,33.94112549695428,0.545409032402595,0.015632862807334707
0.02187761623949553,0.5318696711505756,2.3837106014100787e-09,33.94112549695428,0.5454079707099131,0.015633050618260546
0.022130947096056376,0.5380284316798909,2.4113126692853343e-09,33.94112549695428,0.5454068842702982,0.015633242898025434
0.0223872113856834,0.5442585072950532,2.439234278862716e-09,33.94112549695428,0.5454057725296275,0.015633439804232093
0.022646443075930594,0.5505607237858368,2.4674792780841545e-09,33.94112549695428,0.5454046348746624,0.01563364144320133
0.022908676527677724,0.5569359165042114,2.4960514209996718e-09,33.94112549695428,0.5454034707160902,0.01563384790573643
0.023173946499684784,0.5633849304750667,2.5249543342655348e-09,33.94112549695428,0.5454022794159735,0.015634059357751088
0.023442288153199226,0.5699086205082189,2.5541919275147776e-09,33.94112549695428,0.5454010603485029,0.015634275875394607
0.023713737056616554,0.5765078513117156,2.5837680815406563e-09,33.94112549695428,0.5453998128784202,0.015634497624187428
0.023988329190194897,0.5831834976064518,2.6136867003383538e-09,33.94112549695428,0.545398536330045,0.015634724717116924
0.024266100950824154,0.5899364442421137,2.6439516845420258e-09,33.94112549695428,0.5453972300270251,0.01563495727661859
0.02454708915685031,0.5967675863144625,2.674567284549449e-09,33.94112549695428,0.5453958932843096,0.015635195499564766
0.024831331052955704,0.6036778292839806,2.705537319679617e-09,33.94112549695428,0.5453945253889153,0.01563543945729654
0.025118864315095794,0.6106680890958891,2.73686596248459e-09,33.94112549695428,0.5453931256068129,0.015635689345982598
0.02540972705549305,0.6177392923015549,2.7685572884803347e-09,33.94112549695428,0.5453916932066949,0.015635945341965732
0.025703957827688646,0.624892376181303,2.800615757315647e-09,33.94112549695428,0.5453902274253783,0.015636207571137754
0.026001595631652722,0.6321282888686536,2.833045359396623e-09,33.94112549695428,0.5453887274797172,0.015636476218236696
0.026302679918953815,0.6394479894759959,2.8658504784779062e-09,33.94112549695428,0.5453871925748733,0.015636751476196087
0.0266072505979881,0.6468524482217174,2.8990354630775705e-09,33.94112549695428,0.5453856219027762,0.015637033541486246
0.026915348039269153,0.654342646558804,2.932604711586989e-09,33.94112549695428,0.5453840146202353,0.01563732261926552
0.027227013080779128,0.6619195773049329,2.966562673680298e-09,33.94112549695428,0.5453823698724939,0.015637619010830387
0.02754228703338166,0.6695842447740665,3.0009137580487913e-09,33.94112549695428,0.545380686796494,0.015637922966507185
0.027861211686297706,0.6773376649095767,3.0356627016801807e-09,33.94112549695428,0.5453789644770207,0.015638235046414165
0.028183829312644536,0.6851808654189033,3.0708141200231145e-09,33.94112549695428,0.5453772019887795,0.0156385606084111
0.028510182675039096,0.6931148859097793,3.106372471750607e-09,33.94112549695428,0.5453753983944916,0.01563889946813277
0.028840315031266057,0.7011407780280264,3.1423424663116345e-09,33.94112549695428,0.5453735527811502,0.015639246530346273
0.029174270140011675,0.7092596055969518,3.178729077158403e-09,33.94112549695428,0.5453716641825133,0.01563960198857687
0.029512092266663854,0.7174724447583551,3.2155370251240115e-09,33.94112549695428,0.545369731594029,0.015639966041427405
0.029853826189179603,0.7257803841151724,3.2527711890098163e-09,33.94112549695428,0.54536775398165,0.015640338895870798
0.03019951720402016,0.7341845248757655,3.2904365042125266e-09,33.94112549695428,0.5453657303233096,0.01564072075438893
0.030549211132155123,0.7426859809998894,3.3285380657234118e-09,33.94112549695428,0.5453636595226773,0.015641111836062264
0.030902954325135904,0.7512858793463457,3.367080616276455e-09,33.94112549695428,0.5453615404945346,0.015641512355967477
0.03126079367123956,0.7599853598223447,3.4060695723288695e-09,33.94112549695428,0.5453593721213355,0.015641922537116965
0.03162277660168379,0.7687855755345996,3.4455101051997575e-09,33.94112549695428,0.5453571532385427,0.015642342611706612
0.03198895109691397,0.7776876929421721,3.485407231926252e-09,33.94112549695428,0.5453548826955582,0.015642772807903063
0.03235936569296283,0.7866928920110823,3.525766345546799e-09,33.94112549695428,0.5453525592711995,0.01564321336931946
0.03273406948788383,0.7958023663707121,3.5665926857936583e-09,33.94112549695428,0.5453501817436364,0.015643664538875515
0.03311311214825911,0.8050173234720206,3.6078918826034506e-09,33.94112549695428,0.5453477488563458,0.015644126567089946
0.03349654391578276,0.8143389847475906,3.649669414124493e-09,33.94112549695428,0.5453452593130061,0.015644599711741328
0.033884415613920256,0.8237685857735277,3.691930480515665e-09,33.94112549695428,0.5453427118123093,0.015645084231648267
0.03427677865464505,0.8333073764332338,3.734681135528217e-09,33.94112549695428,0.545340104987554,0.01564558039840214
0.034673685045253165,0.8429566210830783,3.777926588536748e-09,33.94112549695428,0.5453374374809542,0.015646088482789252
0.03507518739525679,0.8527175987199882,3.8216729167112745e-09,33.94112549695428,0.5453347078612032,0.015646608768481302
0.03548133892335755,0.8625916031509769,3.865925811462681e-09,33.94112549695428,0.5453319147030761,0.01564714153991873
0.03589219346450054,0.8725799431646366,3.910691114472273e-09,33.94112549695428,0.5453290565113614,0.01564768709359955
0.03630780547701014,0.8826839427046161,3.955974783430988e-09,33.94112549695428,0.5453261317911766,0.015648245726570538
0.036728230049808464,0.892904941045111,4.001782812458957e-09,33.94112549695428,0.5453231389854465,0.015648817748083414
0.03715352290971726,0.9032442929683803,4.048121406662053e-09,33.94112549695428,0.5453200765159539,0.015649403471082794
0.03758374042884443,0.9137033689443221,4.094996317082281e-09,33.94112549695428,0.5453169427669218,0.015650003216347436
0.038018939632056124,0.924283555312128,4.1424141397888165e-09,33.94112549695428,0.545313736073428,0.015650617313535436
0.03845917820453535,0.9349862544640409,4.190381155131165e-09,33.94112549695428,0.5453104547515175,0.015651246096118003
0.03890451449942805,0.9458128850312408,4.238903360265223e-09,33.94112549695428,0.5453070970625867,0.01565188990806786
0.03935500754557775,0.9567648820718833,4.287987538827143e-09,33.94112549695428,0.545303661229739,0.01565254910013218
0.039810717055349734,0.967843697261312,4.337640228122344e-09,33.94112549695428,0.5453001454398255,0.015653224029843957
0.04027170343254591,0.9790507990844802,4.387867599429593e-09,33.94112549695428,0.5452965478410241,0.015653915061572175
0.04073802778041126,0.9903876730305957,4.438676848381867e-09,33.94112549695428,0.5452928665287986,0.015654622568950925
0.04120975190973302,1.001855821790021,4.490074313441908e-09,33.94112549695428,0.5452890995588964,0.015655346931961255
0.04168693834703355,1.013456765453452,4.5420667741259e-09,33.94112549695428,0.5452852449422654,0.01565608853738568
0.042169650342858224,1.0251920417134048,4.594661428452065e-09,33.94112549695428,0.5452813006442819,0.015656847777111745
0.04265795188015926,1.037063206068037,4.6478652435035656e-09,33.94112549695428,0.5452772645825583,0.015657625044860964
0.043151907682776526,1.0490718320273258,4.70168484180411e-09,33.94112549695428,0.5452731346270299,0.015658420690928154
0.04365158322401661,1.0612195113216345,4.756127786314374e-09,33.94112549695428,0.5452689085976039,0.015659235010712924
0.044157044735331254,1.0735078541126948,4.811201298688186e-09,33.94112549695428,0.5452645842647176,0.015660068428987886
0.0446683592150963,1.0859384892070343,4.866912234119045e-09,33.94112549695428,0.5452601593428809,0.01566092139081028
0.04518559443749224,1.0985130642718708,4.923268421630836e-09,33.94112549695428,0.5452556314936631,0.01566179435156563
0.04570881896148752,1.1112332460535082,4.980277183274512e-09,33.94112549695428,0.5452509983271712,0.01566268777673565
0.04623810213992603,1.124100720598263,5.037946075071853e-09,33.94112549695428,0.5452462573972301,0.015663602142755736
0.046773514128719815,1.1371171934759494,5.096282741081856e-09,33.94112549695428,0.5452414061968142,0.015664537937972768
0.04731512589614805,1.1502843900059485,5.155294924893278e-09,33.94112549695428,0.5452364421670901,0.015665495660852662
0.04786300923226385,1.1636040554858977,5.2149905873689895e-09,33.94112549695428,0.5452313626837235,0.015666475822615766
0.04841723675840994,1.177077955423029,5.275377169822182e-09,33.94112549695428,0.5452261650648712,0.01566747894578703
0.04897788193684462,1.1907078757681848,5.336463311609446e-09,33.94112549695428,0.5452208465675067,0.015668505564839386
0.04954501908047903,1.2044956231525434,5.398256644429875e-09,33.94112549695428,0.5452154043820164,0.015669556227223838
0.05011872336272725,1.2184430251270868,5.460765510351823e-09,33.94112549695428,0.5452098356365036,0.015670631492586216
0.050699070827470445,1.232551930404838,5.523998024628551e-09,33.94112549695428,0.545204137393261,0.015671731933469307
0.05128613839913648,1.2468242091059103,5.587962907064453e-09,33.94112549695428,0.5451983066447122,0.01567285813608076
0.0518800038928961,1.261261753005386,5.65266846806918e-09,33.94112549695428,0.5451923403153061,0.015674010699889003
0.05248074602497726,1.2758664757840716,5.718123283898757e-09,33.94112549695428,0.5451862352581535,0.01567519023833018
0.053088444423098846,1.2906403132821516,5.78433603098949e-09,33.94112549695428,0.5451799882541949,0.01567639737898186
0.05370317963702527,1.3055852237557828,5.851315485524283e-09,33.94112549695428,0.545173596010075,0.015677632763978107
0.05432503314924331,1.3207031881366618,5.919070720106917e-09,33.94112549695428,0.5451670551563164,0.01567889705030792
0.054954087385762455,1.335996210294593,5.987610131883217e-09,33.94112549695428,0.5451603622457951,0.01568019091017296
0.05559042572704037,1.3514663173030972,6.056943402128062e-09,33.94112549695428,0.5451535137519145,0.01568151503134738
0.05623413251903491,1.3671155597081017,6.1270794885198016e-09,33.94112549695428,0.5451465060668035,0.015682870117546054
0.05688529308438413,1.3829460117997368,6.198027916208201e-09,33.94112549695428,0.5451393354994769,0.015684256888541935
0.057543993733715694,1.3989597718872815,6.269797503660052e-09,33.94112549695428,0.5451319982742159,0.015685676080636382
0.05821032177708716,1.4151589625772887,6.342398532581395e-09,33.94112549695428,0.5451244905277046,0.015687128447397197
0.0588843655355589,1.4315457310549373,6.415839848544075e-09,33.94112549695428,0.5451168083076947,0.015688614759875357
0.059566214352901034,1.4481222493686405,6.4901317861632e-09,33.94112549695428,0.5451089475710403,0.015690135806907608
0.06025595860743578,1.4648907147179466,6.565284158986315e-09,33.94112549695428,0.5451009041815235,0.01569169239558874
0.060953689724016935,1.4818533497447737,6.641306566539454e-09,33.94112549695428,0.5450926739070587,0.015693285351835756
0.06165950018614822,1.4990124028280203,6.7182092720972225e-09,33.94112549695428,0.5450842524188654,0.015694915520560293
0.06237348354824192,1.5163701483815875,6.796002469111606e-09,33.94112549695428,0.5450756352879315,0.015696583766293588
0.06309573444801933,1.5339288871558479,6.874696264298416e-09,33.94112549695428,0.5450668179834425,0.015698290973547253
0.0638263486190549,1.5516909465426068,6.954301487969994e-09,33.94112549695428,0.5450577958703806,0.015700038047310447
0.06456542290346556,1.5696586808835953,7.0348287206385e-09,33.94112549695428,0.545048564207096,0.01570182591352868
0.06531305526474723,1.5878344717825392,7.116287978814126e-09,33.94112549695428,0.5450391181427746,0.015703655519530797
0.06606934480075961,1.6062207284208356,7.198690709937089e-09,33.94112549695428,0.5450294527150917,0.01570552783456347
