tau,intH,DintH,normax,epsilon,fidelity
0.01,0.09689881388448565,4.204807578579478e-12,13.2664991614216,0.19578655845364495,0.6646359835542908
0.010115794542598982,0.09802084926769944,4.2534952229700686e-12,13.2664991614216,0.19578580474777194,0.6646370264220154
0.010232929922807542,0.0991558772083112,4.302750128713567e-12,13.2664991614216,0.19578503348007734,0.6646380935998131
0.010351421666793436,0.10030404815304494,4.352573627345766e-12,13.2664991614216,0.1957842442415281,0.6646391856540019
0.010471285480508996,0.1014655142907158,4.402974054517901e-12,13.2664991614216,0.1957834366129575,0.6646403031649321
0.010592537251772886,0.1026404295724022,4.453958091625858e-12,13.2664991614216,0.1957826101665287,0.6646414467249548
0.010715193052376065,0.1038289497318522,4.5055324954514585e-12,13.2664991614216,0.19578176446408666,0.6646426169407154
0.010839269140212033,0.10503123230612546,4.557705959940873e-12,13.2664991614216,0.19578089905715002,0.6646438144331586
0.01096478196143185,0.10624743665647504,4.610479829335388e-12,13.2664991614216,0.1957800134871917,0.6646450398371416
0.01109174815262401,0.10747772398947014,4.6638666693687774e-12,13.2664991614216,0.19577910728462425,0.6646462938028369
0.011220184543019636,0.10872225737836423,4.717873622222851e-12,13.2664991614216,0.1957781799690687,0.6646475769953643
0.01135010815672315,0.10998120178470991,4.7725020795727426e-12,13.2664991614216,0.19577723104953032,0.6646488900945455
0.01148153621496883,0.11125472408022465,4.8277670161139255e-12,13.2664991614216,0.19577626002283005,0.664650233797075
0.011614486138403426,0.11254299306890919,4.883667933791027e-12,13.2664991614216,0.19577526637392725,0.6646516088160761
0.011748975549395297,0.11384617950942273,4.940214116932182e-12,13.2664991614216,0.19577424957615805,0.6646530158807711
0.011885022274370183,0.11516445613771627,4.997425209078471e-12,13.2664991614216,0.19577320909060314,0.6646544557373525
0.012022644346174132,0.11649799768992908,5.055290606224426e-12,13.2664991614216,0.19577214436580148,0.6646559291493838
0.012161860006463679,0.11784698092554934,5.113826029301549e-12,13.2664991614216,0.19577105483746934,0.6646574368981891
0.012302687708123818,0.11921158465084392,5.173043451120549e-12,13.2664991614216,0.19576993992819866,0.6646589797832696
0.01244514611771385,0.12059198974255834,5.232946603708592e-12,13.2664991614216,0.1957687990469942,0.664660558622945
0.012589254117941675,0.1219883791718925,5.293539112366692e-12,13.2664991614216,0.19576763158957855,0.6646621742539333
0.012735030810166616,0.12340093802875253,5.354835406301106e-12,13.2664991614216,0.19576643693815277,0.6646638275316793
0.012882495516931342,0.12482985354628506,5.416837063534213e-12,13.2664991614216,0.1957652144587609,0.6646655193340046
0.013031667784522994,0.1262753151256941,5.479567778965682e-12,13.2664991614216,0.19576396350361364,0.664667250557895
0.013182567385564075,0.1277375143613464,5.543015924527211e-12,13.2664991614216,0.19576268340987218,0.6646690221211902
0.01333521432163324,0.12921664506616667,5.607201024328235e-12,13.2664991614216,0.1957613734993259,0.6646708349630068
0.013489628825916533,0.13071290329732788,5.672129352341795e-12,13.2664991614216,0.19576003307797263,0.6646726900443389
0.013645831365889245,0.13222648738223786,5.737809514422634e-12,13.2664991614216,0.19575866143567963,0.6646745883485337
0.013803842646028852,0.13375759794482756,5.804250217222417e-12,13.2664991614216,0.1957572578457822,0.6646765308818156
0.013963683610559377,0.13530643793214356,5.871457874474621e-12,13.2664991614216,0.19575582156473634,0.6646785186738147
0.01412537544622754,0.13687321264124858,5.939450993002111e-12,13.2664991614216,0.1957543518317187,0.6646805527780948
0.01428893958511103,0.13845812974643332,6.008224145864793e-12,13.2664991614216,0.19575284786802424,0.664682634272982
0.014454397707459272,0.14006139932674322,6.077798579190083e-12,13.2664991614216,0.195751308878498,0.6646847642595952
0.014621771744567183,0.14168323389382464,6.14817616915596e-12,13.2664991614216,0.1957497340468048,0.6646869438683942
0.014791083881682071,0.14332384842009266,6.2193610916348534e-12,13.2664991614216,0.19574812253880958,0.6646891742545034
0.014962356560944336,0.14498346036722579,6.291383025814202e-12,13.2664991614216,0.19574647350100952,0.6646914565998832
0.01513561248436208,0.14666228971498987,6.364236401605345e-12,13.2664991614216,0.19574478606010073,0.6646937921139046
0.015310874616820304,0.1483605589903966,6.437928162137351e-12,13.2664991614216,0.19574305932248476,0.6646961820340723
0.01548816618912481,0.15007849329719883,6.512478510840077e-12,13.2664991614216,0.19574129237377633,0.6646986276266834
0.015667510701081494,0.1518163203457283,6.587889457722708e-12,13.2664991614216,0.19573948427909527,0.6647011301864324
0.015848931924611134,0.1535742704830777,6.664165475966238e-12,13.2664991614216,0.19573763407958886,0.6647036910412333
0.016032453906900418,0.15535257672363384,6.741341116044586e-12,13.2664991614216,0.1957357407963655,0.6647063115467566
0.0162181009735893,0.15715147477996247,6.819393831634761e-12,13.2664991614216,0.1957338034271617,0.6647089930910678
0.016405897731995397,0.15897120309405272,6.898364311658451e-12,13.2664991614216,0.19573182094744568,0.664711737093077
0.016595869074375606,0.16081200286892128,6.978243605518502e-12,13.2664991614216,0.19572979230631796,0.6647145450082377
0.016788040181225608,0.16267411810058469,7.059050735033811e-12,13.2664991614216,0.19572771643029013,0.6647174183232987
0.016982436524617443,0.16455779561039968,7.140787780517295e-12,13.2664991614216,0.19572559222034966,0.6647203585603862
0.017179083871575886,0.16646328507778008,7.223474205939051e-12,13.2664991614216,0.1957234185521469,0.6647233672767306
0.017378008287493755,0.16839083907329067,7.307118094534494e-12,13.2664991614216,0.1957211942752083,0.6647264460657529
0.01757923613958693,0.17034071309212578,7.391733546014063e-12,13.2664991614216,0.19571891821235754,0.6647295965579336
0.01778279410038923,0.17231316558797455,7.477325786571043e-12,13.2664991614216,0.19571658915905998,0.6647328204216246
0.017988709151287873,0.17430845800727873,7.563909139532573e-12,13.2664991614216,0.19571420588288077,0.6647361193638417
0.018197008586099836,0.17632685482388755,7.651495078806955e-12,13.2664991614216,0.19571176712280555,0.6647394951312497
0.018407720014689564,0.17836862357411254,7.740092062018169e-12,13.2664991614216,0.19570927158835622,0.6647429495112892
0.018620871366628676,0.18043403489219,7.829721293789015e-12,13.2664991614216,0.19570671796029565,0.6647464843312345
0.018836490894898,0.18252336254615298,7.920381967744129e-12,13.2664991614216,0.19570410488664552,0.6647501014637884
0.019054607179632473,0.1846368834741191,8.01209893244205e-12,13.2664991614216,0.19570143098475468,0.6647538028241664
0.019275249131909367,0.18677487782099791,8.104871362872687e-12,13.2664991614216,0.19569869483992317,0.6647575903720101
0.019498445997580455,0.18893762897562424,8.198714668259418e-12,13.2664991614216,0.19569589500641335,0.6647614661099887
0.019724227361148535,0.19112542360832113,8.293661449206317e-12,13.2664991614216,0.1956930300008995,0.664765432092867
0.0199526231496888,0.19333855170889747,8.389687267118789e-12,13.2664991614216,0.19569009830921721,0.6647694904181678
0.020183663636815608,0.19557730662508566,8.486845640926573e-12,13.2664991614216,0.1956870983809573,0.6647736432336769
0.020417379446695295,0.19784198510142498,8.585115183047751e-12,13.2664991614216,0.19568402862968934,0.6647778927370609
0.02065380155810529,0.20013288731859444,8.684529669768129e-12,13.2664991614216,0.1956808874322308,0.664782241176997
0.020892961308540396,0.20245031693320156,8.785088204926847e-12,13.2664991614216,0.19567767312772466,0.6647866908543771
0.021134890398366465,0.2047945811180315,8.886818352670076e-12,13.2664991614216,0.19567438401710288,0.6647912441230728
0.021379620895022326,0.20716599060276292,8.98972285907863e-12,13.2664991614216,0.19567101836274348,0.6647959033904147
0.0216271852372702,0.2095648597151541,9.093818944332327e-12,13.2664991614216,0.19566757438409652,0.6648006711232533
0.02187761623949553,0.2119915064227078,9.199120404903812e-12,13.2664991614216,0.19566405026078207,0.6648055498436727
0.022130947096056376,0.2144462523748165,9.30564119820199e-12,13.2664991614216,0.1956604441302065,0.6648105421322931
0.0223872113856834,0.21692942294539738,9.413395445960157e-12,13.2664991614216,0.19565675408632915,0.6648156506299868
0.022646443075930594,0.21944134727601974,9.522397427459738e-12,13.2664991614216,0.19565297817973112,0.6648208780377886
0.022908676527677724,0.2219823583195329,9.632661593082814e-12,13.2664991614216,0.19564911441499472,0.6648262271205236
0.023173946499684784,0.22455279288419835,9.744198586645399e-12,13.2664991614216,0.19564516075073138,0.664831700706779
0.023442288153199226,0.22715299167833347,9.85703108830169e-12,13.2664991614216,0.19564111509823168,0.6648373016907743
0.023713737056616554,0.22978329935547182,9.971174192178805e-12,13.2664991614216,0.19563697532038896,0.664843033033862
0.023988329190194897,0.23244406456004696,1.0086630837481073e-11,13.2664991614216,0.19563273923056365,0.6648488977661187
0.024266100950824154,0.23513563997360498,1.0203432676135667e-11,13.2664991614216,0.19562840459338793,0.6648548989852229
0.02454708915685031,0.23785838236155143,1.0321582857411083e-11,13.2664991614216,0.19562396911805133,0.6648610398657141
0.024831331052955704,0.24061265262044035,1.0441096900644983e-11,13.2664991614216,0.195619430462329,0.6648673236534958
0.025118864315095794,0.24339881582581152,1.056199910382449e-11,13.2664991614216,0.1956147862298704,0.6648737536695689
0.02540972705549305,0.2462172412805801,1.0684305643584831e-11,13.2664991614216,0.1956100339688436,0.664880333311914
0.025703957827688646,0.24906830256398702,1.0808019667500439e-11,13.2664991614216,0.19560517117062667,0.6648870660573125
0.026001595631652722,0.2519523775811172,1.0933170637071284e-11,13.2664991614216,0.19560019526854336,0.6648939554631119
0.026302679918953815,0.2548698486129904,1.1059770786841258e-11,13.2664991614216,0.19559510363617447,0.6649010051695357
0.0266072505979881,0.2578211023672318,1.1187841455264367e-11,13.2664991614216,0.19558989358739773,0.6649082188997681
0.026915348039269153,0.26080653002932974,1.1317381331133608e-11,13.2664991614216,0.19558456237290622,0.6649156004645931
0.027227013080779128,0.2638265273144873,1.1448435093742884e-11,13.2664991614216,0.19557910718016144,0.6649231537625971
0.02754228703338166,0.26688149452007315,1.1581001724958592e-11,13.2664991614216,0.19557352513159418,0.6649308827826383
0.027861211686297706,0.26997183657868185,1.1715108177369113e-11,13.2664991614216,0.19556781328310713,0.6649387916059264
0.028183829312644536,0.27309796311180534,1.185075790856294e-11,13.2664991614216,0.19556196862442704,0.6649468844055532
0.028510182675039096,0.2762602884841301,1.1987988103286454e-11,13.2664991614216,0.19555598807248897,0.6649551654556618
0.028840315031266057,0.27945923185845833,1.2126802463073637e-11,13.2664991614216,0.19554986847379174,0.6649636391282281
0.029174270140011675,0.2826952172512698,1.2267219217767578e-11,13.2664991614216,0.19554360660240314,0.6649723098957102
0.029512092266663854,0.2859686735889229,1.2409266922542997e-11,13.2664991614216,0.19553719915796117,0.6649811823340253
0.029853826189179603,0.28928003476450975,1.25529645763489e-11,13.2664991614216,0.19553064276383686,0.6649902611249723
0.03019951720402016,0.2926297396953672,1.2698321054396508e-11,13.2664991614216,0.19552393396781367,0.6649995510553478
0.030549211132155123,0.29601823238125563,1.2845355448808451e-11,13.2664991614216,0.19551706923041792,0.665009057033118
0.030902954325135904,0.2994459619632105,1.2994097654765572e-11,13.2664991614216,0.1955100449387364,0.6650187840682957
0.03126079367123956,0.3029133827830749,1.3144562214129508e-11,13.2664991614216,0.19550285739299808,0.665028737291549
0.03162277660168379,0.3064209544437225,1.3296769071138035e-11,13.2664991614216,0.1954955028084277,0.6650389219516472
0.03198895109691397,0.309969141869978,1.3450727439815553e-11,13.2664991614216,0.1954879773129254,0.6650493434186917
0.03235936569296283,0.3135584153702415,1.3606490610392906e-11,13.2664991614216,0.19548027694557554,0.6650600071862414
0.03273406948788383,0.31718925069882753,1.3764046346632138e-11,13.2664991614216,0.1954723976554434,0.6650709188728186
0.03311311214825911,0.32086212911902606,1.3923426491889868e-11,13.2664991614216,0.19546433529417193,0.6650820842325553
0.03349654391578276,0.3245775374668934,1.4084652171167801e-11,13.2664991614216,0.19545608561996905,0.6650935091493034
0.033884415613920256,0.3283359682157818,1.4247750562365082e-11,13.2664991614216,0.19544764429334302,0.6651051996427768
0.03427677865464505,0.3321379195416161,1.4412725865071063e-11,13.2664991614216,0.195439006874859,0.6651171618716292
0.034673685045253165,0.335983895388926,1.4579617366367904e-11,13.2664991614216,0.19543016882276035,0.6651294021368738
0.03507518739525679,0.3398744055376445,1.4748447387267832e-11,13.2664991614216,0.19542112549056553,0.6651419268850874
0.03548133892335755,0.343809965670678,1.491922027982613e-11,13.2664991614216,0.19541187212522712,0.6651547427108777
0.03589219346450054,0.347791097442259,1.5091982857859724e-11,13.2664991614216,0.19540240386382784,0.665167856361877
0.03630780547701014,0.3518183285470914,1.5266733562827994e-11,13.2664991614216,0.1953927157326671,0.6651812747397217
0.036728230049808464,0.3558921927902963,1.544351400776557e-11,13.2664991614216,0.19538280264243046,0.665195004906873
0.03715352290971726,0.36001323015816666,1.5622341470450515e-11,13.2664991614216,0.1953726593906607,0.6652090540832446
0.03758374042884443,0.3641819868897415,1.5803246098479483e-11,13.2664991614216,0.19536228064669311,0.6652234296671343
0.038018939632056124,0.3683990155492102,1.5986239062522984e-11,13.2664991614216,0.19535166096612014,0.6652381392151929
0.03845917820453535,0.3726648750991538,1.617134439798793e-11,13.2664991614216,0.19534079477420588,0.6652531904653655
0.03890451449942805,0.3769801309746352,1.6358599740242232e-11,13.2664991614216,0.19532967636992368,0.6652685913314359
0.03935500754557775,0.38134535515814666,1.654803014113234e-11,13.2664991614216,0.19531829992136926,0.6652843499093909
0.039810717055349734,0.38576112625542525,1.6739640479568026e-11,13.2664991614216,0.1953066594626977,0.6653004744817792
0.04027170343254591,0.39022802957214675,1.693346258027119e-11,13.2664991614216,0.19529474889563875,0.6653169735158355
0.04073802778041126,0.3947466571915077,1.712956377558487e-11,13.2664991614216,0.19528256197392485,0.6653338556841968
0.04120975190973302,0.39931760805270466,1.7327907714243104e-11,13.2664991614216,0.19527009230595063,0.6653511298622801
0.04168693834703355,0.40394148803032315,1.752856257223375e-11,13.2664991614216,0.1952573333656411,0.6653688051129351
0.042169650342858224,0.4086189100146455,1.773152653351817e-11,13.2664991614216,0.19524427847099185,0.6653868907162284
0.04265795188015926,0.4133504939928896,1.79368479365726e-11,13.2664991614216,0.1952309207920146,0.6654053961584968
0.043151907682776526,0.4181368671313869,1.8144554238817053e-11,13.2664991614216,0.1952172533290765,0.6654243311624151
0.04365158322401661,0.4229786638587122,1.835465079688789e-11,13.2664991614216,0.19520326893827597,0.6654437056521976
0.044157044735331254,0.427876525949777,1.8567187636550977e-11,13.2664991614216,0.1951889603066337,0.6654635297876009
0.0446683592150963,0.4328311026108966,1.8782193187620155e-11,13.2664991614216,0.19517431994331577,0.6654838139758033
0.04518559443749224,0.43784305056584105,1.899967299307903e-11,13.2664991614216,0.1951593402046772,0.6655045688376683
0.04570881896148752,0.44291303414288274,1.9219663177188736e-11,13.2664991614216,0.19514401326084435,0.6655258052537439
0.04623810213992603,0.448041725362853,1.944223223103339e-11,13.2664991614216,0.19512833109816458,0.6655475343609565
0.046773514128719815,0.45322980402821805,1.9667354655533145e-11,13.2664991614216,0.19511228553227022,0.6655697675352125
0.04731512589614805,0.4584779578131857,1.9895108099892344e-11,13.2664991614216,0.19509586819269326,0.6655925164113168
0.04786300923226385,0.4637868823548553,2.0125474396948334e-11,13.2664991614216,0.19507907050576745,0.6656157929076283
0.04841723675840994,0.4691572813454242,2.0358516406710197e-11,13.2664991614216,0.19506188371353536,0.6656396092002629
0.04897788193684462,0.4745898666254618,2.0594265306766654e-11,13.2664991614216,0.19504429885478164,0.6656639777493165
0.04954501908047903,0.48008535827826276,2.0832727172038004e-11,13.2664991614216,0.19502630676509447,0.6656889112995366
0.05011872336272725,0.48564448472529304,2.1073967369750852e-11,13.2664991614216,0.1950078980829681,0.6657144228693834
0.050699070827470445,0.4912679828227414,2.131798372472459e-11,13.2664991614216,0.19498906319965995,0.6657405258237156
0.05128613839913648,0.4969565979591899,2.15648343434194e-11,13.2664991614216,0.19496979232713155,0.6657672337783945
0.0518800038928961,0.5027110841544129,2.181454335610988e-11,13.2664991614216,0.1949500754242013,0.6657945607031316
0.05248074602497726,0.5085322041593231,2.206715285355725e-11,13.2664991614216,0.19492990224528525,0.6658225208525835
0.053088444423098846,0.5144207295570715,2.2322669344362672e-11,13.2664991614216,0.19490926230270408,0.6658511288210687
0.05370317963702527,0.5203774408653211,2.2581153672596816e-11,13.2664991614216,0.19488814487046147,0.6658803995370782
0.05432503314924331,0.5264031276397041,2.284264041753272e-11,13.2664991614216,0.19486653899313372,0.6659103482483189
0.054954087385762455,0.5324985885784757,2.310713631138825e-11,13.2664991614216,0.19484443343366584,0.6659409905985895
0.05559042572704037,0.5386646316283807,2.3374704339533363e-11,13.2664991614216,0.1948218167326833,0.6659723425424946
0.05623413251903491,0.5449020740917466,2.364537065834547e-11,13.2664991614216,0.19479867716758328,0.6660044204025425
0.05688529308438413,0.5512117427348155,2.3919171148140215e-11,13.2664991614216,0.194775002747277,0.6660372408791871
0.057543993733715694,0.5575944738973325,2.419612237688205e-11,13.2664991614216,0.19475078119325814,0.6660708210738728
0.05821032177708716,0.5640511136033991,2.447633018980806e-11,13.2664991614216,0.19472599997874745,0.6661051784383462
0.0588843655355589,0.5705825176736142,2.475974264685792e-11,13.2664991614216,0.1947006462658939,0.6661403308583642
0.059566214352901034,0.5771895518385135,2.504644695515575e-11,13.2664991614216,0.19467470694879105,0.6661762965978175
0.06025595860743578,0.583873091853319,2.533647114132771e-11,13.2664991614216,0.19464816862297332,0.6662130943388022
0.060953689724016935,0.5906340236140202,2.5629853650505205e-11,13.2664991614216,0.19462101758201827,0.6662507431888516
0.06165950018614822,0.5974732432747984,2.5926643932471698e-11,13.2664991614216,0.19459323980206963,0.6662892627005211
0.06237348354824192,0.6043916573668121,2.6226849634240637e-11,13.2664991614216,0.19456482095713531,0.6663286728451039
0.06309573444801933,0.6113901829183555,2.6530553050145046e-11,13.2664991614216,0.19453574640896604,0.6663689940377056
0.0638263486190549,0.6184697475764098,2.683776237268759e-11,13.2664991614216,0.19450600117789038,0.6664102471731816
0.06456542290346556,0.6256312897296017,2.7148517954517877e-11,13.2664991614216,0.19447556992212084,0.6664524536551419
0.06531305526474723,0.6328757586325867,2.7462882977517507e-11,13.2664991614216,0.1944444370020898,0.6664956353071129
0.06606934480075961,0.6402041145318715,2.7780888172041808e-11,13.2664991614216,0.19441258641147177,0.6665398144684891
0.06683439175686148,0.6476173287930923,2.8102587148500077e-11,13.2664991614216,0.19438000178597462,0.666585013982716
0.06760829753919818,0.6551163840297693,2.8427988187486406e-11,13.2664991614216,0.1943466664035655,0.6666312571973552
