tau,intH,DintH,normax,epsilon,fidelity
0.01,0.2897227789493496,1.5981103749368453e-09,43.81780460041329,0.5999919936806875,0.015626562770108394
0.010115794542598982,0.29307761061624416,1.616615621534076e-09,43.81780460041329,0.599991805160038,0.015626601578585867
0.010232929922807542,0.29647128940297546,1.6353351884462741e-09,43.81780460041329,0.5999916122230368,0.01562664132470734
0.010351421666793436,0.2999042651379903,1.6542714767475708e-09,43.81780460041329,0.5999914147475661,0.015626682051693392
0.010471285480508996,0.30337699285850417,1.6734270383246194e-09,43.81780460041329,0.5999912126278132,0.015626723796644978
0.010592537251772886,0.30688993287081473,1.692804409451562e-09,43.81780460041329,0.5999910057735427,0.01562676654992985
0.010715193052376065,0.31044355081131575,1.7124061607717497e-09,43.81780460041329,0.599990794050395,0.01562681035989101
0.010839269140212033,0.3140383177082157,1.732234890250428e-09,43.81780460041329,0.599990577354911,0.015626855261832138
0.01096478196143185,0.31767471004397363,1.7522932242589398e-09,43.81780460041329,0.5999903555805827,0.015626901249190913
0.01109174815262401,0.3213532098184543,1.7725838234294161e-09,43.81780460041329,0.5999901285914577,0.01562694837740033
0.011220184543019636,0.32507430461281867,1.7931093775590268e-09,43.81780460041329,0.5999898962585818,0.015626996673131114
0.01135010815672315,0.32883848765415113,1.8138726055015597e-09,43.81780460041329,0.5999896584924471,0.01562704613760244
0.01148153621496883,0.3326462578808366,1.8348762152687811e-09,43.81780460041329,0.5999894151272783,0.01562709682699172
0.011614486138403426,0.3364981200086941,1.856123125316099e-09,43.81780460041329,0.5999891660436343,0.01562714877964986
0.011748975549395297,0.3403945845978767,1.8776159727484573e-09,43.81780460041329,0.5999889111297743,0.015627201985208686
0.011885022274370183,0.3443361681205449,1.8993577869351463e-09,43.81780460041329,0.5999886502131595,0.01562725650996059
0.012022644346174132,0.3483233930293256,1.921351266346953e-09,43.81780460041329,0.5999883831665843,0.015627312391877184
0.012161860006463679,0.35235678782656116,1.943599465398238e-09,43.81780460041329,0.5999881098653991,0.01562736962270964
0.012302687708123818,0.3564368871343637,1.9661052864982168e-09,43.81780460041329,0.5999878301352053,0.015627428273447385
0.01244514611771385,0.36056423176547664,1.988871761726685e-09,43.81780460041329,0.599987543831149,0.015627488381987107
0.012589254117941675,0.36473936879496044,2.0119017627015165e-09,43.81780460041329,0.5999872508162756,0.015627549937345997
0.012735030810166616,0.3689628516327059,2.0351985371503192e-09,43.81780460041329,0.5999869509120294,0.015627613036176095
0.012882495516931342,0.37323524009678866,2.058765025537805e-09,43.81780460041329,0.5999866439664017,0.0156276776902288
0.013031667784522994,0.37755710048767166,2.0826044009984723e-09,43.81780460041329,0.599986329822063,0.015627743902071136
0.013182567385564075,0.3819290056632686,2.1067197715062685e-09,43.81780460041329,0.5999860082858052,0.015627811785045336
0.01333521432163324,0.38635153511487486,2.1311144891974707e-09,43.81780460041329,0.5999856791974555,0.015627881328070182
0.013489628825916533,0.390825275043979,2.155791578020358e-09,43.81780460041329,0.5999853424094371,0.015627952552415142
0.013645831365889245,0.395350818439963,2.180754468932705e-09,43.81780460041329,0.5999849976729678,0.015628025585198567
0.013803842646028852,0.39992876515870224,2.206006415516812e-09,43.81780460041329,0.5999846448600181,0.015628100395458217
0.013963683610559377,0.404559722002075,2.231550765897407e-09,43.81780460041329,0.599984283773564,0.015628177020896698
0.01412537544622754,0.40924430279839524,2.2573909059294545e-09,43.81780460041329,0.5999839141765012,0.015628255597756113
0.01428893958511103,0.4139831284837734,2.283530260716038e-09,43.81780460041329,0.5999835359181803,0.015628336067815815
0.014454397707459272,0.4187768271844209,2.3099723507700315e-09,43.81780460041329,0.5999831487693154,0.015628418533471872
0.014621771744567183,0.4236260342999083,2.3367205133741423e-09,43.81780460041329,0.5999827525234327,0.015628503060826252
0.014791083881682071,0.42853139258738626,2.3637784617039706e-09,43.81780460041329,0.5999823469894511,0.01562858962658078
0.014962356560944336,0.43349355224678265,2.3911497841434468e-09,43.81780460041329,0.5999819318942996,0.01562867839174013
0.01513561248436208,0.43851317100698517,2.418837994700232e-09,43.81780460041329,0.5999815070632588,0.01562876932379856
0.015310874616820304,0.44359091421302366,2.446846757435568e-09,43.81780460041329,0.5999810722648138,0.015628862494687798
0.01548816618912481,0.4487274549142598,2.4751799074978e-09,43.81780460041329,0.5999806272216823,0.01562895801568939
0.015667510701081494,0.45392347395360033,2.5038412016474554e-09,43.81780460041329,0.5999801717539059,0.01562905584480058
0.015848931924611134,0.45917966005774014,2.5328343163056807e-09,43.81780460041329,0.599979705540829,0.015629156177946867
0.016032453906900418,0.4644967099284546,2.5621630923670924e-09,43.81780460041329,0.5999792284030894,0.01562925894539877
0.0162181009735893,0.4698753283349444,2.5918315437649733e-09,43.81780460041329,0.5999787400235658,0.015629364300353974
0.016405897731995397,0.47531622820725383,2.621843537523212e-09,43.81780460041329,0.599978240167099,0.015629472263884375
0.016595869074375606,0.4808201307307671,2.652203121185359e-09,43.81780460041329,0.5999777285596491,0.015629582917658744
0.016788040181225608,0.4863877654418026,2.6829141859530115e-09,43.81780460041329,0.5999772049273197,0.015629696354409642
0.016982436524617443,0.49201987032431005,2.7139808668648346e-09,43.81780460041329,0.5999766689790166,0.015629812615747085
0.017179083871575886,0.4977171919076917,2.7454072166685495e-09,43.81780460041329,0.5999761204154557,0.015629931804805836
0.017378008287493755,0.5034804853657519,2.7771975350931316e-09,43.81780460041329,0.5999755589502843,0.015630053978564446
0.01757923613958693,0.5093105146167962,2.809355965742444e-09,43.81780460041329,0.5999749842661142,0.015630179219093873
0.01778279410038923,0.5152080524248868,2.8418868445578144e-09,43.81780460041329,0.5999743960336966,0.01563030764855519
0.017988709151287873,0.5211738805022718,2.874794273726583e-09,43.81780460041329,0.5999737939796848,0.015630439266929957
0.018197008586099836,0.527208789613002,2.9080828928751065e-09,43.81780460041329,0.599973177699113,0.015630574300078193
0.018407720014689564,0.5333135796777423,2.9417569057804682e-09,43.81780460041329,0.5999725469015682,0.015630712739053598
0.018620871366628676,0.5394890598798033,2.975820845275111e-09,43.81780460041329,0.5999719012446115,0.01563085468744684
0.018836490894898,0.545736048772397,3.0102791525763936e-09,43.81780460041329,0.5999712403268059,0.015631000319733475
0.019054607179632473,0.5520553743871348,3.045136543638506e-09,43.81780460041329,0.5999705637983486,0.015631149718257645
0.019275249131909367,0.558447874343782,3.0803975628948543e-09,43.81780460041329,0.5999698712792435,0.015631302990588892
0.019498445997580455,0.5649143959612832,3.116066884341004e-09,43.81780460041329,0.5999691623757256,0.01563146027477306
0.019724227361148535,0.571455796370075,3.152149238242613e-09,43.81780460041329,0.5999684366804534,0.015631621715509216
0.0199526231496888,0.5780729426256963,3.188649406148103e-09,43.81780460041329,0.5999676937608451,0.015631787467703016
0.020183663636815608,0.5847667118237154,3.22557230686589e-09,43.81780460041329,0.5999669331441975,0.015631957786804356
0.020417379446695295,0.5915379912159895,3.2629225922738148e-09,43.81780460041329,0.5999661543871525,0.015632132826408584
0.02065380155810529,0.5983876783282672,3.3007055363649257e-09,43.81780460041329,0.5999653569395229,0.015632312943023967
0.020892961308540396,0.6053166810791563,3.338925824410491e-09,43.81780460041329,0.599964539729451,0.015632499456505966
0.021134890398366465,0.6123259179004658,3.3775887631464635e-09,43.81780460041329,0.5999636980850974,0.015632700556014605
0.021379620895022326,0.6194163178589449,3.4166993977992333e-09,43.81780460041329,0.5999628339147153,0.015632911862632017
0.0216271852372702,0.6265888207794271,3.456262912156227e-09,43.81780460041329,0.5999619493624554,0.01563312852668061
0.02187761623949553,0.6338443773694065,3.4962845505033535e-09,43.81780460041329,0.5999610439644066,0.015633350674454993
0.022130947096056376,0.6411839493450492,3.536769617625002e-09,43.81780460041329,0.5999601172238527,0.015633578440765128
0.0223872113856834,0.6486085095586714,3.5777235674917807e-09,43.81780460041329,0.5999591686473079,0.01563381195944097
0.022646443075930594,0.6561190421276868,3.6191516524126943e-09,43.81780460041329,0.5999581977164703,0.015634051372529077
0.022908676527677724,0.6637165425650526,3.6610593634380656e-09,43.81780460041329,0.5999572039118282,0.01563429682068797
0.023173946499684784,0.6714020179112228,3.703452434479504e-09,43.81780460041329,0.5999561867018609,0.01563454844848685
0.023442288153199226,0.6791764868676297,3.746336392366004e-09,43.81780460041329,0.599955145527579,0.01563480640836012
0.023713737056616554,0.6870409799317118,3.789716923304279e-09,43.81780460041329,0.5999540798402745,0.015635070849825572
0.023988329190194897,0.6949965395335067,3.83359977703529e-09,43.81780460041329,0.5999529890650915,0.015635341928348794
0.024266100950824154,0.703044220173823,3.877990864195602e-09,43.81780460041329,0.5999518726019738,0.01563561980820499
0.02454708915685031,0.711185088564012,3.922895787074679e-09,43.81780460041329,0.5999507298659458,0.015635904648090247
0.024831331052955704,0.7194202237673605,3.9683207794013325e-09,43.81780460041329,0.5999495602412627,0.015636196615285092
0.025118864315095794,0.7277507173421204,4.01427176850884e-09,43.81780460041329,0.5999483630839831,0.015636495885095976
0.02540972705549305,0.7361776734861922,4.0607549447579244e-09,43.81780460041329,0.5999471377649234,0.01563680262877207
0.025703957827688646,0.7447022091834842,4.107776169779212e-09,43.81780460041329,0.5999458836303178,0.015637117023338584
0.026001595631652722,0.7533254543519696,4.155341976107632e-09,43.81780460041329,0.599944599988564,0.015637439257254204
0.026302679918953815,0.7620485519934552,4.203458566680654e-09,43.81780460041329,0.5999432861599671,0.015637769514881227
0.0266072505979881,0.7708726583450856,4.2521323228954244e-09,43.81780460041329,0.5999419414519065,0.015638107983713154
0.026915348039269153,0.7797989430325987,4.301369696405391e-09,43.81780460041329,0.5999405651209105,0.015638454866017375
0.027227013080779128,0.7888285892253621,4.35117720825294e-09,43.81780460041329,0.5999391564435346,0.015638810357132125
0.02754228703338166,0.7979627937931972,4.4015615757210524e-09,43.81780460041329,0.599937714661275,0.0156391746631129
0.027861211686297706,0.8072027674650266,4.452529254799983e-09,43.81780460041329,0.5999362390033476,0.015639547991481633
0.028183829312644536,0.8165497349893511,4.5040870048397574e-09,43.81780460041329,0.5999347286680214,0.015639930559497243
0.028510182675039096,0.8260049352965928,4.556241874238698e-09,43.81780460041329,0.5999331828640273,0.015640322580399154
0.028840315031266057,0.8355696216633102,4.609000781941389e-09,43.81780460041329,0.5999316007579643,0.015640724277845967
0.029174270140011675,0.8452450618783214,4.662370493803067e-09,43.81780460041329,0.5999299814958505,0.015641135881910143
0.029512092266663854,0.8550325384107462,4.716358201553583e-09,43.81780460041329,0.5999283242317105,0.01564155761870624
0.029853826189179603,0.8649333485799986,4.770971053771542e-09,43.81780460041329,0.599926628058034,0.015641989730966373
0.03019951720402016,0.8749488047277414,4.826216296830582e-09,43.81780460041329,0.5999248920891173,0.0156424324535036
0.030549211132155123,0.8850802343918388,4.882101127664726e-09,43.81780460041329,0.5999231153957019,0.015642886032462257
0.030902954325135904,0.8953289804823197,4.938633313715177e-09,43.81780460041329,0.5999212970194218,0.0156433507193695
0.03126079367123956,0.9056964014593767,4.9958199942364e-09,43.81780460041329,0.599919436016128,0.01564382675849715
0.03162277660168379,0.9161838715134298,5.05366873695956e-09,43.81780460041329,0.5999175313848994,0.015644314404791262
0.03198895109691397,0.9267927807472761,5.112187465234133e-09,43.81780460041329,0.599915582134655,0.015644813897046802
0.03235936569296283,0.9375245353603436,5.1713838038203175e-09,43.81780460041329,0.5999135873081894,0.015645325367532836
0.03273406948788383,0.9483805578350817,5.231265734831347e-09,43.81780460041329,0.5999115459026089,0.01564584896183152
0.03311311214825911,0.9593622871255099,5.291840937020689e-09,43.81780460041329,0.5999094568409027,0.01564638496084212
0.03349654391578276,0.970471178847951,5.353117435435983e-09,43.81780460041329,0.5999073190186613,0.015646933652447518
0.033884415613920256,0.9817087054739709,5.415103749521061e-09,43.81780460041329,0.5999051312949308,0.015647495334996958
0.03427677865464505,0.9930763565255512,5.4778075608483134e-09,43.81780460041329,0.5999028925145178,0.015648070310399564
0.034673685045253165,1.004575638772525,5.54123771694115e-09,43.81780460041329,0.5999006014801592,0.015648658891387852
0.03507518739525679,1.0162080764322998,5.605402225716816e-09,43.81780460041329,0.5998982569890702,0.015649261392400464
0.03548133892335755,1.0279752113718874,5.670309724363498e-09,43.81780460041329,0.5998958577823589,0.015649878142279354
0.03589219346450054,1.039878603312278,5.735968816459117e-09,43.81780460041329,0.5998934026026272,0.015650509469854506
0.03630780547701014,1.0519198300351793,5.80238820511135e-09,43.81780460041329,0.5998908901333188,0.01565115571911626
0.036728230049808464,1.0641004875921518,5.8695766962102436e-09,43.81780460041329,0.5998883190575326,0.01565181723430442
0.03715352290971726,1.0764221905161608,5.937543045122021e-09,43.81780460041329,0.5998856879959164,0.015652494376226515
0.03758374042884443,1.0888865720355827,6.006296700885455e-09,43.81780460041329,0.5998829955619736,0.015653187507337525
0.038018939632056124,1.1014952842906864,6.07584633885265e-09,43.81780460041329,0.5998802403281652,0.01565389700094602
0.03845917820453535,1.114249998552624,6.146201169971582e-09,43.81780460041329,0.5998774208301441,0.015654623239854056
0.03890451449942805,1.127152405444956,6.217370980684742e-09,43.81780460041329,0.5998745355800186,0.015655366613505185
0.03935500754557775,1.1402042151677407,6.2893647410303816e-09,43.81780460041329,0.5998715830428817,0.015656127523252385
0.039810717055349734,1.1534071577242193,6.362191995890748e-09,43.81780460041329,0.5998685616544106,0.015656906378357243
0.04027170343254591,1.166762983150126,6.435862868244685e-09,43.81780460041329,0.599865469816558,0.015657703596944527
0.04073802778041126,1.1802734617456556,6.510386487725006e-09,43.81780460041329,0.599862305892262,0.01565851960739064
0.04120975190973302,1.1939403843101115,6.585773210197182e-09,43.81780460041329,0.5998590682032499,0.015659354848863508
0.04168693834703355,1.2077655623792767,6.662033030704201e-09,43.81780460041329,0.5998557550336039,0.015660209770576312
0.042169650342858224,1.2217508284655278,6.739175740459041e-09,43.81780460041329,0.5998523646297307,0.015661084831502168
0.04265795188015926,1.2358980363007372,6.817211550044083e-09,43.81780460041329,0.599848895195789,0.015661980501816056
0.043151907682776526,1.2502090610819805,6.896151308853626e-09,43.81780460041329,0.5998453448955005,0.01566289726229311
0.04365158322401661,1.2646857997200902,6.9760049746341035e-09,43.81780460041329,0.5998417118483197,0.01566383560541672
0.044157044735331254,1.2793301710910918,7.056783131800803e-09,43.81780460041329,0.5998379941296329,0.015664796035230674
0.0446683592150963,1.294144116290549,7.138497004881977e-09,43.81780460041329,0.599834189770739,0.015665779067407605
0.04518559443749224,1.3091295988908525,7.221156904206605e-09,43.81780460041329,0.599830296758595,0.0156667852293649
0.04570881896148752,1.324288605201489,7.3047739601941886e-09,43.81780460041329,0.5998263130307663,0.01566781506147354
0.04623810213992603,1.339623144532324,7.3893592594624635e-09,43.81780460041329,0.5998222364765499,0.015668869116802226
0.046773514128719815,1.3551352494599371,7.474924007024042e-09,43.81780460041329,0.5998180649379957,0.015669947960945434
0.04731512589614805,1.3708269760970349,7.561479547536776e-09,43.81780460041329,0.5998137962066852,0.015671052172862694
0.04786300923226385,1.3867004043649858,7.649037165810557e-09,43.81780460041329,0.5998094280205788,0.015672182345524005
0.04841723675840994,1.4027576382695126,7.737609032231613e-09,43.81780460041329,0.5998049580680154,0.015673339085104338
0.04897788193684462,1.4190008061795776,7.82720612976795e-09,43.81780460041329,0.5998003839823797,0.015674523012266583
0.04954501908047903,1.4354320611094933,7.917840905060508e-09,43.81780460041329,0.5997957033414714,0.015675734762406152
0.05011872336272725,1.4520535810043032,8.00952518155082e-09,43.81780460041329,0.599790913668685,0.015676974985202746
0.050699070827470445,1.468867569028464,8.102271311337395e-09,43.81780460041329,0.5997860124297616,0.015678244345647796
0.05128613839913648,1.4858762538578771,8.196091188118065e-09,43.81780460041329,0.5997809970310864,0.015679543524264566
0.0518800038928961,1.5030818899752934,8.290997451088078e-09,43.81780460041329,0.5997758648201335,0.015680873216847108
0.05248074602497726,1.5204867579691446,8.387002676992633e-09,43.81780460041329,0.5997706130826599,0.01568223413567226
0.053088444423098846,1.5380931648358298,8.484119590895789e-09,43.81780460041329,0.5997652390418156,0.015683627009694046
0.05370317963702527,1.5559034442855086,8.582361069216227e-09,43.81780460041329,0.599759739856608,0.015685052584929554
0.05432503314924331,1.5739199570514306,8.68173990944271e-09,43.81780460041329,0.5997541126201369,0.015686511624740305
0.054954087385762455,1.5921450912028499,8.782269935586617e-09,43.81780460041329,0.5997483543583921,0.015688004910353152
0.05559042572704037,1.6105812624615556,8.88396382847656e-09,43.81780460041329,0.5997424620286561,0.01568953324128971
0.05623413251903491,1.6292309145220785,8.986835281152294e-09,43.81780460041329,0.5997364325177281,0.015691097435675382
0.05688529308438413,1.6480965193755988,9.090897709531504e-09,43.81780460041329,0.5997302626405726,0.01569269833071046
0.057543993733715694,1.6671805776376072,9.196165566029146e-09,43.81780460041329,0.5997239491387697,0.01569433678314035
0.05821032177708716,1.6864856188793536,9.30265191961821e-09,43.81780460041329,0.5997174886781936,0.01569601366981687
0.0588843655355589,1.7060142019631432,9.41037177955989e-09,43.81780460041329,0.5997108778475488,0.015697729888013864
0.059566214352901034,1.725768915381512,9.51933875302513e-09,43.81780460041329,0.5997041131571748,0.01569948635592488
0.06025595860743578,1.7457523776003276,9.629567264239636e-09,43.81780460041329,0.5996971910367804,0.015701284013214713
0.060953689724016935,1.7659672374058601,9.741072393588263e-09,43.81780460041329,0.5996901078329844,0.015703123821549387
0.06165950018614822,1.7864161742558802,9.853868695834656e-09,43.81780460041329,0.5996828598087,0.01570500676495972
0.06237348354824192,1.8071018986348188,9.967971121693092e-09,43.81780460041329,0.5996754431402208,0.01570693385060664
0.06309573444801933,1.8280271524130367,1.008339503127259e-08,43.81780460041329,0.59966785391553,0.015708906109033572
0.0638263486190549,1.849194709210257,1.0200155243014764e-08,43.81780460041329,0.5996600881324131,0.015710924594963236
0.06456542290346556,1.8706073747632028,1.0318267220244676e-08,43.81780460041329,0.5996521416962364,0.01571299038779176
0.06531305526474723,1.8922679872975017,1.0437747384722112e-08,43.81780460041329,0.5996440104178437,0.015715104592005404
0.06606934480075961,1.9141794179038838,1.0558610802954144e-08,43.81780460041329,0.5996356900115368,0.01571726833804788
0.06683439175686148,1.936344570918741,1.0680873491208942e-08,43.81780460041329,0.5996271760925355,0.015719482782771382
